#     frames       t (s)     x (pxl)     y (pxl)           f         u02         u20         u11
       399.0       199.5  382.896851   38.222851    2.021672    8.540642    5.265783    0.300929
       400.0       200.0  382.704498   39.572422     1.14041   15.093396   13.726547    0.959308
       401.0       200.5         nan         nan         nan         nan         nan         nan
       402.0       201.0  382.522522    38.79958    1.986924    8.019539    8.252515    0.383077
       403.0       201.5  381.950714   40.089035    2.350204   16.427229    6.772322   -3.596709
       404.0       202.0  383.082031   39.711437    2.432549     6.80215    8.772242    1.128829
       405.0       202.5  382.940552   40.136097     2.71609   11.820636    8.143245   -1.551206
       406.0       203.0  384.078125   38.642185    1.416627    6.978408    9.743122    2.457669
       407.0       203.5  382.625458   39.479877    2.561932    5.492541   10.333705    1.489979
       408.0       204.0  381.114441    39.98819    3.056615    13.21636     7.80057    4.004941
       409.0       204.5  382.568115   40.027977    3.327117    9.852182   13.189002   -0.195617
       410.0       205.0  381.824402    39.66143    2.426231    6.514574   10.250912    1.136487
       411.0       205.5  382.212494   40.573261    3.222053    20.78149    9.611642   -1.408828
       412.0       206.0  382.349701   39.890812    2.586822   12.604378   14.722572     2.91592
       413.0       206.5  382.749725   39.777763    3.573237    9.363425    7.504362    0.869722
       414.0       207.0  382.856354   39.751701    2.535312     7.94444    7.316544   -0.463062
       415.0       207.5  381.352295   39.469048    1.298866    14.06119     9.62514   -4.998739
       416.0       208.0  383.103058    39.78693    2.112433    6.688476   12.129611    0.950053
       417.0       208.5  381.526031   40.046375    1.891168    6.227402    9.864963   -0.581192
       418.0       209.0  380.900024   40.320766    2.443513    8.069221    9.993581    1.428359
       419.0       209.5  381.271912   40.815544    2.440939   10.056315    8.134685    1.964207
       420.0       210.0  381.868103   40.006088     3.34681   12.128355   10.723687   -2.104233
       421.0       210.5  382.868103   40.024342    4.109339   10.841423    11.48501   -0.077564
       422.0       211.0  384.276978   39.379852     3.22912    12.51996   11.925797     1.74466
       423.0       211.5  382.005829   39.889481    3.656837   10.438782   11.223078    0.031169
       424.0       212.0  384.027069    40.47113    2.542219    9.084746   12.354937    5.042245
       425.0       212.5  382.936157   39.374817    3.646228   10.405192   12.190173   -2.571493
       426.0       213.0  382.108612   39.870914    5.109334   16.292665   27.403803    2.034919
       427.0       213.5  383.628052   40.703758    4.706131    19.45915    15.18032    0.425854
       428.0       214.0  383.904999   39.918091    4.156059   12.458783   15.463284   -0.522494
       429.0       214.5  383.738159   40.171146    4.606343   10.747608    13.48041   -0.531102
       430.0       215.0  384.019043   39.823864    6.097376   15.605004   14.359362   -0.308069
       431.0       215.5  384.193207   40.424942    5.093821   13.647724     14.4835    0.122381
       432.0       216.0  384.775452   39.850948    6.198976   29.982878    21.19138   -4.982768
       433.0       216.5  384.683197   39.160603    6.732728   34.380291    23.03462  -10.855543
       434.0       217.0  384.180237   39.467175    6.176488   17.035242   23.333761   -2.744293
       435.0       217.5  386.506348   40.269379    7.704182    23.38275   24.046555    6.121665
       436.0       218.0  386.984375     39.6698    8.007991   19.798946   24.054445    2.622931
       437.0       218.5  387.068085   40.385067    6.883823   26.560562   16.407043   -1.741141
       438.0       219.0  387.105713   40.975147    9.621045   24.393976   34.108402    3.516891
       439.0       219.5  386.886871   40.735653    8.802536   21.673296   26.506163    0.564405
       440.0       220.0  387.267365   40.686012    9.294093   27.907568   28.359375   -2.472577
       441.0       220.5   385.62262   40.245132    7.336997   19.547876   23.880346    0.079518
       442.0       221.0  386.417206    40.25639    7.930313   27.687084   35.196888    0.589197
       443.0       221.5  386.049103   40.436424    7.152503   25.176092    23.57349    -4.97461
       444.0       222.0  386.370514   40.878727    9.923675   26.707512   33.889202    0.239787
       445.0       222.5  386.056793   41.255211    7.870611   21.764574   25.384878     6.47211
       446.0       223.0  386.509521   40.762138     9.18614   29.626421    30.20397    0.316973
       447.0       223.5  387.445099   40.605679    9.831521     32.2771   29.840532   -2.620869
       448.0       224.0  387.769379   40.202274   10.914435   26.676594   30.587233     3.55127
       449.0       224.5  388.105804   40.625484    9.921945   29.582268   27.548309    4.007323
       450.0       225.0   388.65274   40.523911    10.22151   32.811306   29.340698    7.250975
       451.0       225.5  388.079712   40.631245   10.727249   27.852551    34.19701    2.163049
       452.0       226.0  387.593048   41.058819    9.411132   24.778185   30.159462   -0.279819
       453.0       226.5     387.694   41.279507    9.857185   31.769497   26.866182    0.909841
       454.0       227.0  387.306549   39.756573    8.908501   25.190493    34.14698    1.631651
       455.0       227.5  387.702576   40.276329      8.7547   29.132166   28.408636    7.131503
       456.0       228.0   387.77179    40.07608   11.412203   28.789959   26.537832   -0.759163
       457.0       228.5  387.826935   40.424686   10.078854   26.172701   31.687706    2.068765
       458.0       229.0  387.351776   40.415749    8.940228   24.553642   25.407196    0.564925
       459.0       229.5  387.921631   40.804039    8.640473   19.508886   26.759974    0.703021
       460.0       230.0  387.722137    40.04171    7.568986   22.809235   31.744436    7.838916
       461.0       230.5  387.410858   40.693363      7.5645   19.921734   24.129171    2.403385
       462.0       231.0  387.168396   41.221153    6.876805   17.074085   15.410965    2.049102
       463.0       231.5  386.827301   41.178696    6.329983   15.641743   16.815956    2.700425
       464.0       232.0  386.684479    40.59433    3.859431   12.360795    9.168833    2.166182
       465.0       232.5  387.177368   40.358093     1.81511    3.904371    6.956776    0.814624
#-----------------------------------------------------------------------------------------------
# experiment: ./TRAJECTORIES
# path: /Users/andreapicco/Google Drive/RESEARCH/TRACKING/Automated_Tracking/TEST/AP2_MOVIE_2/./TRAJECTORIES
# file: trajectory_000887.txt
# dataset: Traj_3_Macro_pDC_Left_Mid_AP2_GFP_LP_fr_600_i_0.5_Airyscan Processing_BG_BL_JTC.txt
# t_unit: s
# delta_t: 0.5
# coord_unit: pxl
# intensity_normalisation: None
