#     frames       t (s)     x (pxl)     y (pxl)           f         u02         u20         u11
        91.0        45.5  360.898407  117.459641    2.390603    7.242256    4.769566    0.217484
        92.0        46.0  361.509033  116.055595    1.284569    7.431936    9.072011      0.4882
        93.0        46.5  363.133423  117.087517    1.066913    3.783142    4.385112    0.972666
        94.0        47.0         nan         nan         nan         nan         nan         nan
        95.0        47.5  362.201447  117.582367    1.967479    5.365084    4.807348    0.086295
        96.0        48.0         nan         nan         nan         nan         nan         nan
        97.0        48.5  361.098816  116.739426    2.350241    6.770776    12.47155    2.066348
        98.0        49.0  360.649261  118.030861    2.057935    6.728934    7.331533    -1.33593
        99.0        49.5  360.264618  119.091553    1.455029    5.709048    6.337844   -0.530921
       100.0        50.0         nan         nan         nan         nan         nan         nan
       101.0        50.5  361.723389  117.482597    1.535922   11.608379   12.660835    5.339488
       102.0        51.0  360.997681  115.893066    1.697279    5.813574    8.391928    1.337346
       103.0        51.5  362.720337  117.684174    1.773708    8.627286      4.3763    0.857371
       104.0        52.0  361.062408  117.460762    2.264113    7.949944    5.014056   -0.126888
       105.0        52.5  360.809326  116.563713    3.030114     8.36272     6.33108   -0.943376
       106.0        53.0  361.532471  116.534195    2.404893   20.879498   11.814191    -6.89768
       107.0        53.5  359.929657   117.22718    1.971966   11.707302   16.321918    1.137542
       108.0        54.0  360.296967  116.964668    2.684184    7.434233     7.16127   -0.681078
       109.0        54.5  359.341919  116.242195    3.121034   14.257714    11.32383   -4.240886
       110.0        55.0   359.65741  116.549332    4.497139   14.321939   10.705115    1.602918
       111.0        55.5  359.688751  116.530052    1.874765    7.472379    5.420063    0.263536
       112.0        56.0  359.352661  117.426086    3.390537   13.497478    8.275654    0.727153
       113.0        56.5  359.982788   117.06427    2.659961    8.307669     7.01167    0.240682
       114.0        57.0  361.142944   116.41848     3.18649    10.58964    8.168315    0.568012
       115.0        57.5  360.070831  117.277153    2.394171    6.160667    7.521673     1.67944
       116.0        58.0  359.744476  116.254341    2.476337    8.755836     5.39991   -0.727295
       117.0        58.5  360.518646  116.284126    3.426582   11.525159    9.478849   -2.450704
       118.0        59.0  360.047546  116.580444    3.732277   16.464014    7.723767    0.830351
       119.0        59.5  361.406677  116.311081    1.468721    7.504594    5.373656   -0.719868
       120.0        60.0  360.830933   117.33712    2.475763    6.763504   11.049281    1.833807
       121.0        60.5  360.109894  116.435257    3.779319    9.133413    9.476152    0.686019
       122.0        61.0  360.775696  116.060097    2.499152    6.166044    7.612537    -1.11179
       123.0        61.5  360.377167  116.067101    1.833867      5.2199    8.961903    1.617609
       124.0        62.0  360.332489  115.643074    3.109485    8.968911    9.043477   -1.880711
       125.0        62.5  360.670258  116.199059     3.73029    9.199129    9.785625    0.384766
       126.0        63.0    360.1474  116.355484    3.359651    12.33914    7.010865    0.007357
       127.0        63.5  359.589966  116.218346     3.98098   14.874924   10.989932     0.35766
       128.0        64.0  360.374115  116.400063    3.891815   16.530758   10.832694    2.536999
       129.0        64.5  359.923737  116.253082    2.809357    9.240049    9.190592    0.506862
       130.0        65.0  359.516968  115.602959     3.54039    9.843668   12.567404    0.931752
       131.0        65.5  360.846161  116.093582    3.491797   10.431378    9.101553    0.004472
       132.0        66.0  359.885193  116.506981    3.411211    9.982275    9.236754    2.129595
       133.0        66.5   360.09436  115.943596    3.453059    8.269157   12.716761    1.387617
       134.0        67.0  359.880768  115.925697    3.619583    9.075369    9.404923    0.687809
       135.0        67.5  360.771942  115.773262    3.389423    9.033254    9.488358    1.515153
       136.0        68.0  359.436249  116.326866    4.090873   13.745804   22.162462    4.371149
       137.0        68.5  360.122528  115.529938    3.396252   10.697301    8.210123    0.195885
       138.0        69.0  360.296844  115.990562    5.219378   13.117952   12.217408    1.649557
       139.0        69.5  360.182068  115.861984    4.724802   13.714611   13.340642    1.694792
       140.0        70.0  359.487213  115.678391    4.769911   11.849001   16.257647    2.834606
       141.0        70.5  359.583984  115.601616    3.666038   11.647372   10.856091   -0.680055
       142.0        71.0    358.7995  115.865883    4.410168   11.540776   12.245689    1.053966
       143.0        71.5  360.262726  115.951599    3.059214    8.998199    8.043235    0.168969
       144.0        72.0  360.123505   115.65889     3.94079   10.710361   12.875723   -2.218786
       145.0        72.5  360.058716  115.744118     3.97031    9.784573    9.452016    1.037638
       146.0        73.0  359.536407  115.805931    3.555817   12.014895   10.416582     0.93343
       147.0        73.5  359.433655   115.47039    3.345377    9.263249   14.976864    2.764639
       148.0        74.0  358.835968  115.655602    2.753434   11.257653   10.426279   -0.484283
       149.0        74.5  359.328857  115.475006    3.198141   12.461911    9.429284   -0.629352
       150.0        75.0  360.067352  115.973808    2.841166    8.590069   12.973662   -3.010421
       151.0        75.5  359.163177  115.770218    3.457458   10.228785   25.741009    1.428291
       152.0        76.0  358.235748  116.099846    4.470224   10.514048   10.920918    0.748947
       153.0        76.5  357.895294  115.606743    3.775907   14.166509    6.689568    0.548861
       154.0        77.0  358.251129  115.085777    4.301581    16.34343   11.869505     2.62649
       155.0        77.5  358.552063  115.294067    4.011626   10.118014   14.818748   -3.437771
       156.0        78.0  357.882874  115.087547    2.990182   24.685173    7.841887   -2.249762
       157.0        78.5  357.920715  116.085602    3.721986   14.610302   10.733513    4.439291
       158.0        79.0  357.543732  115.544746    4.285713   11.118826   14.705198    2.272256
       159.0        79.5  357.882385  116.099754    2.127979    6.477103    5.438262    0.483245
       160.0        80.0  358.198395  115.591858    2.403294    6.206315    5.558504    0.204722
       161.0        80.5  363.094757  115.719658    1.419095    7.718766    3.814446    0.017553
       162.0        81.0         nan         nan         nan         nan         nan         nan
       163.0        81.5   366.33786  117.588707    1.324039    2.702968    5.144054   -0.771006
#-----------------------------------------------------------------------------------------------
# experiment: ./TRAJECTORIES
# path: /Users/andreapicco/Google Drive/RESEARCH/TRACKING/Automated_Tracking/TEST/AP2_MOVIE_2/./TRAJECTORIES
# file: trajectory_000215.txt
# dataset: Traj_3_Macro_pDC_Left_Mid_AP2_GFP_LP_fr_600_i_0.5_Airyscan Processing_BG_BL_JTC.txt
# t_unit: s
# delta_t: 0.5
# coord_unit: pxl
# intensity_normalisation: None
