#     frames       t (s)     x (pxl)     y (pxl)           f         u02         u20         u11
       327.0       163.5  150.420029   71.469582    1.064321    3.140435    7.833683    0.181709
       328.0       164.0         nan         nan         nan         nan         nan         nan
       329.0       164.5  159.644821   71.121605    1.122417   26.364141    5.475443   -0.613535
       330.0       165.0         nan         nan         nan         nan         nan         nan
       331.0       165.5   160.03923   64.814041     0.96899    7.335809    8.517402   -1.767878
       332.0       166.0         nan         nan         nan         nan         nan         nan
       333.0       166.5  159.579239   65.315948    2.101313      7.7196    7.000923    1.829819
       334.0       167.0  159.287949   65.113655      2.2856    6.894469     5.64302    0.950199
       335.0       167.5         nan         nan         nan         nan         nan         nan
       336.0       168.0  159.365448   65.521675    2.280046    6.344823   10.574219    3.355943
       337.0       168.5  159.494263   66.053543    2.674192   13.756798    18.70265    8.350353
       338.0       169.0  159.661087   65.985008    1.802133   13.949208    4.531711   -1.392144
       339.0       169.5  160.072403   64.842171    2.510991    5.782882    8.746169    1.364201
       340.0       170.0  159.431412   65.961006    2.660821    9.729882    8.075252    1.308063
       341.0       170.5  159.988434   65.337334    2.989581   12.152858    6.675601    1.399006
       342.0       171.0  159.790863   64.508308    3.610932   12.091662   10.956916   -0.289491
       343.0       171.5  159.025131   65.546669    1.817871    5.387542    4.102149    0.805032
       344.0       172.0   158.33165   63.543945    3.003177    11.06076    8.753425    1.562654
       345.0       172.5  158.751434   63.989784     2.27063   13.223761    8.140329    1.017964
       346.0       173.0         nan         nan         nan         nan         nan         nan
       347.0       173.5  158.510941    63.87101    4.018775   15.676478   14.313993    -1.53724
       348.0       174.0  158.509644   64.764557    2.594612    7.456604    9.921061   -1.742062
       349.0       174.5  159.352112   63.900463     3.02213    9.962119    7.936583    2.584479
       350.0       175.0  158.534531   63.975674    2.397894    7.197574    8.205226   -2.532555
       351.0       175.5  158.546509   64.116966    1.911115    8.381703   10.682627    3.462913
       352.0       176.0  158.906845   63.956387    1.903223    9.773619   13.936486    3.383276
       353.0       176.5  159.506668   63.883572    2.728255    8.453568    9.512896   -2.991182
       354.0       177.0  159.906662   63.950268    3.286995   22.935755    6.598522   -0.652991
       355.0       177.5  160.206253   63.961937    2.717059   15.181495    7.020569    1.148619
       356.0       178.0  158.646637   63.807823    3.518665   12.690397   10.085875   -1.670419
       357.0       178.5  159.562561   63.798691    3.576171   14.373629    8.949216    0.227517
       358.0       179.0  159.091705   63.785343    5.701786   24.800774   13.341648   -1.749672
       359.0       179.5  159.178375    63.44651    4.217805   26.622906   11.687181    6.554267
       360.0       180.0  160.097534   63.586731    5.380188   20.114668   12.902668    3.157958
       361.0       180.5  159.929977   64.095306    6.670956   22.661596   15.332594    2.167592
       362.0       181.0  160.017242   63.421406    4.249412   14.872715   10.776661    2.119579
       363.0       181.5  159.597397   62.857685    5.853531   15.872869   13.515821     2.27704
       364.0       182.0  159.201492   63.289516    4.883775   17.967701    9.027006     2.41714
       365.0       182.5  158.815292   63.105934    3.750261   20.994223   12.938251     6.53421
       366.0       183.0  158.979904   62.975739    4.939619   14.016695   15.632357     4.53058
       367.0       183.5  158.739395   63.693504    3.961377   14.035116   15.139805    2.469833
       368.0       184.0  159.088959    63.09927     4.39329   17.807758   14.198195    0.130124
       369.0       184.5  159.883987   63.847198    3.753386   15.663502    9.176506    -2.09614
       370.0       185.0  159.054977   63.751862     4.42024   13.182723    9.914594    1.111413
       371.0       185.5  159.276962    64.01223    4.611014   22.526236   10.629994    2.250823
       372.0       186.0  157.857224   63.758331    5.460801   16.979292   20.432365   -0.567658
       373.0       186.5  158.990738    63.21236     3.64573   25.281813   10.195766    4.342498
       374.0       187.0  159.578094   64.177834    6.195545   18.598152   17.727076    0.724535
       375.0       187.5    159.0354   63.943233    6.441814   25.439514   17.154579    5.352097
       376.0       188.0   160.52092   63.788292    5.459482   22.709835   14.010757    1.231391
       377.0       188.5  160.515213   64.234406    6.523468   23.337671   16.609896    2.928279
       378.0       189.0   160.96489   65.032379    6.549519   16.335979   13.365846    0.376491
       379.0       189.5  160.567978   64.567024    5.867596   42.809509    14.94725    8.727334
       380.0       190.0  161.741135   64.380104     5.77358   27.191065   17.279758   -1.592657
       381.0       190.5    161.8358   64.308174    5.914106    25.30558   15.780322    0.566673
       382.0       191.0  163.305847   64.859726    5.062319   23.641264   12.607063   -0.856196
       383.0       191.5  163.242477   66.216637     6.43541    18.04867   21.660072    2.480303
       384.0       192.0  162.852966   66.095795     6.48997   18.350752   19.583759   -3.708162
       385.0       192.5   162.30896   65.509865    7.739318   51.574875   17.057367    5.137129
       386.0       193.0  162.512589   65.282066    8.362855   36.312866   19.293886    0.582602
       387.0       193.5  162.588226   65.216965    8.198333   49.119061   22.207516    4.877007
       388.0       194.0  162.712845   65.031631    6.492177   25.103077   15.067683    0.897457
       389.0       194.5  162.306137   65.349442    6.553652   36.971443   14.708092    4.543997
       390.0       195.0  163.014679   64.848167    6.861581   22.944252   13.478431    1.920028
       391.0       195.5  162.990601   64.877716    8.643353   40.624165   17.741383    6.323669
       392.0       196.0  163.047653   65.903435    7.803736   22.553904   19.758686    3.434556
       393.0       196.5  162.945053   66.705376    5.487889   18.692448   13.225289    3.915523
       394.0       197.0  162.635788   66.242897     6.34092   22.749626   17.372713    3.986976
       395.0       197.5  163.262115   66.271217    4.620369    33.80904   12.107619    8.137923
       396.0       198.0  163.518112   66.683929    3.615705   17.243401   35.047108    3.568685
#-----------------------------------------------------------------------------------------------
# experiment: ./TRAJECTORIES
# path: /Users/andreapicco/Google Drive/RESEARCH/TRACKING/Automated_Tracking/TEST/AP2_MOVIE_2/./TRAJECTORIES
# file: trajectory_000709.txt
# dataset: Traj_3_Macro_pDC_Left_Mid_AP2_GFP_LP_fr_600_i_0.5_Airyscan Processing_BG_BL_JTC.txt
# t_unit: s
# delta_t: 0.5
# coord_unit: pxl
# intensity_normalisation: None
