#     frames       t (s)     x (pxl)     y (pxl)           f         u02         u20         u11
       316.0       158.0  108.515549   99.085022    1.368858    2.937186    2.547589    0.110408
       317.0       158.5  110.680092   99.804817    1.590444    3.078316    6.144803    1.273764
       318.0       159.0  107.811661   99.481903    1.425932    4.019783    3.305419   -1.241537
       319.0       159.5  107.432686    97.59153    2.436775    6.484615     4.88532    1.163104
       320.0       160.0         nan         nan         nan         nan         nan         nan
       321.0       160.5  107.476631   97.935745    2.341202     6.10078    5.773796    0.171938
       322.0       161.0  106.923965  100.447342    1.417174    4.628957    2.736395   -0.689491
       323.0       161.5  107.661385   98.518753    1.221493    4.726402     1.89813   -0.705935
       324.0       162.0  107.335251    97.91713    1.218409     2.10017    4.690212    0.242119
       325.0       162.5  107.314949   98.561806    2.754528     6.54425   10.800633    0.940894
       326.0       163.0  107.593727    99.99472    3.624992   11.002528    7.856606   -0.379432
       327.0       163.5  107.947777    99.33744    3.535121   11.411963    9.983759   -1.909307
       328.0       164.0  108.308273   98.356918    4.200342    9.436998   13.084509     0.26356
       329.0       164.5  107.928696   98.147667    3.929309   12.564145   10.445086   -4.532238
       330.0       165.0  108.173347   98.781792    4.532427   12.826307    9.530389    -1.60965
       331.0       165.5   107.90403   99.582825    2.576873    9.323169    5.664603    0.910142
       332.0       166.0  108.803932   98.552025    2.828437    7.806145    8.290817   -1.473838
       333.0       166.5  108.210602   98.778084    4.594611   12.521867   15.027966   -1.723241
       334.0       167.0  107.667831    98.48719    5.227371   14.804628   15.594977   -2.959695
       335.0       167.5  108.413208   98.360786     4.17234   10.289969   13.171178   -3.307349
       336.0       168.0   106.61116   98.876701    3.829829   13.669191    9.650394    0.116951
       337.0       168.5  108.227249    98.66687    4.312757   10.725514   11.658067    0.172215
       338.0       169.0  108.065498    98.84185    3.929196   11.609347   12.309782   -3.284723
       339.0       169.5  107.586235   99.070732    4.630743   11.223475   16.775555   -3.506886
       340.0       170.0  107.643044   98.368141    5.383364   17.501343   10.155001    0.750929
       341.0       170.5  107.890495   98.885071    4.378078   12.111889   19.148737   -5.375089
       342.0       171.0  108.478142    98.58535     3.84287   11.113886   10.911553    1.213776
       343.0       171.5  107.364609   98.538567    3.733639    9.865171   13.468501   -2.394521
       344.0       172.0  106.955925   99.009697    4.977479   16.577131   14.046216   -0.971365
       345.0       172.5  106.454613   98.576706    4.363187   14.273057   10.352999    0.245995
       346.0       173.0  106.718109   98.295502    4.081975   10.932256    14.12341   -4.395771
       347.0       173.5   106.67601   98.724396    4.600134   11.990143   13.977185    -1.88458
       348.0       174.0  106.986931   98.763954    7.379294   15.805451   23.901485   -1.228079
       349.0       174.5  107.301102   99.206032    5.185636   13.690922    13.73581   -3.124993
       350.0       175.0  107.452957    98.69014    5.953839   19.332558   18.363684   -6.164907
       351.0       175.5  107.723083   99.297447    5.394108   13.720977   15.765672   -0.853628
       352.0       176.0  107.511078   98.601341      5.7296   18.941122   13.980495   -0.962143
       353.0       176.5  107.582939   98.975189    6.751288   18.044069   18.490643   -1.974304
       354.0       177.0  107.306122   98.562233     5.89663   13.634179   16.917637   -0.597671
       355.0       177.5  107.788528    98.84137    4.792345   11.593088   12.579782   -0.589702
       356.0       178.0  106.999039   98.260773    4.748488   15.127492   10.395554   -0.164653
       357.0       178.5  106.942009   99.241066     5.12212   15.197705   10.636455   -0.542323
       358.0       179.0  107.666603   98.808945     5.70843    14.08342   22.872833    3.595912
       359.0       179.5  107.535095   98.265968    5.750296   13.152358   20.982075   -2.015218
       360.0       180.0  107.617104   98.365555    6.036708   17.010056   17.809702   -1.033583
       361.0       180.5  107.998924   98.102722    5.721368   19.664724   13.939762   -2.990543
       362.0       181.0  107.060722   98.147743     6.71274    19.05234   22.661942    1.749788
       363.0       181.5  107.600449    98.42791    5.399405   19.472733   15.318229    -2.01329
       364.0       182.0  107.685959   98.055893    5.328667   16.375734   12.991479   -3.902572
       365.0       182.5  107.063553   97.965675    4.760741   19.813362   17.988703   -1.297501
       366.0       183.0  107.289406   97.947334    5.406615   19.280643   16.213848    -5.97627
       367.0       183.5  106.989105   99.253815    6.681138   19.982147    16.85569    -1.73595
       368.0       184.0  107.417923   98.639084    5.157152   20.324442   10.873836   -2.499435
       369.0       184.5  107.590965   97.990738    4.514078   16.550003   13.994773   -1.533101
       370.0       185.0  107.296043   98.818169    6.638174   22.032755    19.69668   -3.618808
       371.0       185.5  106.763802   98.643143    7.630461   27.247602   17.082603   -0.204595
       372.0       186.0  106.868423   99.109795    5.603926   12.452481   19.866789    1.984864
       373.0       186.5  106.233986   98.690857    5.294306   16.846537   13.965565   -2.073238
       374.0       187.0  106.945892   98.497063    6.372022   16.542715   20.271908    1.756933
       375.0       187.5  107.450981   98.553635    5.498323   18.346336   17.514627   -3.468449
       376.0       188.0  106.585197   99.063416    6.909259   22.485464   19.830198   -0.517292
       377.0       188.5  106.210182   99.567123    5.252638   14.680867   19.934771    -4.94293
       378.0       189.0  107.088829   98.495499    7.588768   20.486095   22.155357   -0.757321
       379.0       189.5  107.174706   98.508179    6.405376   20.554068   17.679745   -3.640358
       380.0       190.0  107.790565   97.832451    5.874743   15.253897   19.161829    1.966359
       381.0       190.5  106.513969   98.221924    4.589776   13.672667   12.522092   -1.316808
       382.0       191.0  107.831879   98.315689     4.12636     9.38606   19.506212    -0.31774
       383.0       191.5  106.908112   97.904709    4.512178    14.01708    9.337502   -0.639956
       384.0       192.0  107.450302    97.81324    6.004175   15.370743   19.188133    0.143946
       385.0       192.5   107.65667   97.691704    6.097182   22.347565   15.912868    0.033397
       386.0       193.0  107.320053   98.024017    5.112046   16.787382   14.070457   -3.598291
       387.0       193.5  107.251404   98.477905    5.525238   13.622693   16.602362     1.43024
       388.0       194.0  108.106018   98.230019    6.334311   14.649129   16.031769   -0.005337
       389.0       194.5  107.682526   97.617332     5.56132   14.113664   14.534229    -0.31854
       390.0       195.0  107.538971    98.19429    5.088797   12.154695   16.478136    0.787428
       391.0       195.5  107.477654   98.573097    5.431274    18.98958   15.010825   -3.308401
       392.0       196.0  107.669304   98.462608     3.26528    9.928596    8.506474   -0.723612
       393.0       196.5  107.466461   99.079887     6.22097   15.009315   19.090303    1.856141
       394.0       197.0  106.284019   98.378349    5.746609   19.879862   15.867258   -0.215254
       395.0       197.5  106.107651   98.704536     6.32878   16.020485   17.322559   -0.221018
       396.0       198.0  106.364288   99.045242    6.172098   15.890983   15.021413    3.056582
       397.0       198.5  106.259224   98.168007    6.134267   17.697409    17.07579   -1.446881
       398.0       199.0  106.389198   98.984123    5.970384   23.661072   17.076998   -4.981704
       399.0       199.5  107.476273   99.104866     5.89596   13.178117   15.901774   -1.325887
       400.0       200.0  106.352524   98.939476    5.824334   11.859438    21.34828   -1.515428
       401.0       200.5  106.514236   99.314781    4.527248   15.402562   14.046708   -2.338944
       402.0       201.0    106.8395   99.204033    5.907173   14.299314   15.100121   -0.982628
       403.0       201.5  106.397903   99.843201    3.462482    7.977607   11.458168   -0.110064
       404.0       202.0  105.893822   98.583244    4.980448   14.482132   12.136694   -1.453389
       405.0       202.5  106.164291   98.559166    2.467515    5.384302    8.350625    1.003671
       406.0       203.0  108.521477   98.039192      1.1813    1.506373    5.139325    0.161512
       407.0       203.5  107.980438   97.936142    1.534737    2.992034    3.818899    0.289531
#-----------------------------------------------------------------------------------------------
# experiment: ./TRAJECTORIES
# path: /Users/andreapicco/Google Drive/RESEARCH/TRACKING/Automated_Tracking/TEST/AP2_MOVIE_2/./TRAJECTORIES
# file: trajectory_000666.txt
# dataset: Traj_3_Macro_pDC_Left_Mid_AP2_GFP_LP_fr_600_i_0.5_Airyscan Processing_BG_BL_JTC.txt
# t_unit: s
# delta_t: 0.5
# coord_unit: pxl
# intensity_normalisation: None
