#     frames       t (s)     x (pxl)     y (pxl)           f         u02         u20         u11
       267.0       133.5  397.732758   50.346458    2.678002    9.342085     4.94278   -0.135729
       268.0       134.0  397.241913   50.280472    2.612249    7.144099    7.401146   -1.199543
       269.0       134.5         nan         nan         nan         nan         nan         nan
       270.0       135.0  396.761383   48.450146    1.588059    4.646076    3.975036   -0.486239
       271.0       135.5  396.198151   49.697109    1.931591    4.476169    5.581284    0.538215
       272.0       136.0   397.65744    49.98621    1.873965    3.800219    4.263542    0.063534
       273.0       136.5  396.577576   50.735455    2.329434    7.166345     8.74569     2.56676
       274.0       137.0         nan         nan         nan         nan         nan         nan
       275.0       137.5  398.316467   49.390144    2.372503    6.281426     4.55133   -0.032683
       276.0       138.0  397.387482   49.490871    2.406496    6.777318    5.687695    0.444885
       277.0       138.5  397.446655    49.53986    3.185067   11.878133    7.415528     0.39562
       278.0       139.0  398.125275   50.102612    2.346334     8.04353    4.532919     0.65494
       279.0       139.5  397.518463   49.541077    2.702359    7.404207    7.593114   -1.761518
       280.0       140.0  398.307556    49.48595    3.732908   14.629367    8.836217    0.629659
       281.0       140.5  399.283081   50.403786    2.191401    5.487672     4.29996    0.797345
       282.0       141.0  397.851044   49.598232    1.442889    2.528158     5.69255   -0.050665
       283.0       141.5  398.939423   49.478661    2.768581    6.922491    6.474988   -0.903211
       284.0       142.0   399.67514   49.295582    2.219368    4.831237    4.074471   -0.460714
       285.0       142.5   397.56778   50.235718    1.524649    4.189046    4.215177   -0.822954
       286.0       143.0  398.706329   49.854721    2.529161    5.234496    5.360678    0.755165
       287.0       143.5  398.355133   49.234249    3.211235    8.617185    8.079045   -0.975865
       288.0       144.0  398.848938   48.512787    2.999217    7.465427    8.209984   -1.607668
       289.0       144.5  397.952728   49.699436     3.05269    7.370972    5.411086    0.254102
       290.0       145.0   398.75061   49.355091    3.186934    9.540736    6.168999    0.327294
       291.0       145.5  398.042786   49.769524    3.505284    9.517176    8.076845   -1.923706
       292.0       146.0  398.497772   49.151081    1.479687    4.177922    3.144425    0.173313
       293.0       146.5  398.990204   49.152729    2.447049    5.243133    4.477045    0.694262
       294.0       147.0  398.975006   49.013817    2.626942    5.808835     4.18408   -0.193734
       295.0       147.5  399.093811   50.248371    3.054868   11.317307    5.697211   -0.287703
       296.0       148.0  398.905853    49.92804    2.815744    5.937725    5.373778     0.93972
       297.0       148.5  398.129822   49.722954    3.744505    7.954074    9.036184    0.248163
       298.0       149.0  397.956299   49.467876    3.970315    8.713173    9.795428    2.087468
       299.0       149.5  398.412323   49.449387    2.885144    7.396484    9.629143    2.738997
       300.0       150.0  399.022919   48.996754    3.341924     8.07094     6.27474    0.403099
       301.0       150.5  398.061035   50.098446    3.740604    9.864223    6.735526    1.964742
       302.0       151.0  398.750946    49.27673    3.902256    9.746399      9.8005   -0.682735
       303.0       151.5  397.785767   49.482555     4.90197   11.461535   10.659831    2.627605
       304.0       152.0  398.137268   49.003201    3.530653    7.426114    7.812013   -0.224363
       305.0       152.5  396.920532   48.940697    3.894161    8.181793    9.334485    1.446681
       306.0       153.0  398.272705   48.366863    3.160866    7.748778    6.519936   -1.661734
       307.0       153.5  397.829193   49.329872    2.040995    4.818508    2.999066    0.969532
       308.0       154.0  397.653137    49.35733    4.028369    7.621023   10.182779    0.565308
       309.0       154.5  396.802368   49.698429    3.107664    7.303605    5.366586     0.73411
       310.0       155.0  396.932526   49.499828    4.288343   11.910293    8.847897    0.646152
       311.0       155.5  397.447296    49.56749    4.152191    8.535686    9.380692    -1.44598
       312.0       156.0  397.081604   49.233677    2.969188    6.589377    4.834057    1.043377
       313.0       156.5  397.174042   49.070587     1.97624    3.303134    3.242413    0.330586
       314.0       157.0  397.612366   50.030472    4.152139    12.14268    7.276406    0.908802
       315.0       157.5  396.444092   49.497936    3.607615    8.007663    8.815536    2.727744
       316.0       158.0  397.711853   49.790207    5.206566    12.33807    9.566885    0.699687
       317.0       158.5  396.583801   49.628006    4.368218    8.886724   10.736452    2.282536
       318.0       159.0  396.625854   48.633381    3.142606    5.127921    8.446652    1.081735
       319.0       159.5         nan         nan         nan         nan         nan         nan
       320.0       160.0   397.70163    51.10006    0.947017    1.202994    1.203571   -0.030351
       321.0       160.5  397.701813   49.996498    1.634744     3.25174    1.895643    -0.28304
       322.0       161.0  395.712097   51.559021    1.368139     3.38491    5.690068    -2.14876
       323.0       161.5  397.489044   51.278511    0.805135    1.205723    1.094976    0.176312
       324.0       162.0  396.840668   50.077114    0.952112    2.058996    2.154952   -1.009982
       325.0       162.5         nan         nan         nan         nan         nan         nan
       326.0       163.0  396.839874   50.128853    1.183321    1.551809    1.593153    0.044042
       327.0       163.5  397.154602   50.338245    2.614803    4.680364    7.169265    2.232168
       328.0       164.0         nan         nan         nan         nan         nan         nan
       329.0       164.5  397.283691    50.21442    2.213304    4.070246    6.515571    1.078691
       330.0       165.0  397.899689   51.038536    3.504352    7.405142     8.01368    1.427312
       331.0       165.5   397.95813    50.69659    3.777948   11.913247   10.212905   -2.145651
       332.0       166.0  396.862549   51.241932    3.740024    9.843593    9.793273    2.749675
       333.0       166.5  397.448761   50.996864    4.658453   12.810118    12.64934    2.685522
       334.0       167.0  397.595673   50.229752    3.296498    7.605398    9.204899   -0.908503
       335.0       167.5  397.111206   51.620846    4.568638    7.624838   14.278441   -0.768027
       336.0       168.0  396.430634   50.357853    2.984368    7.831396    6.640115     0.90709
       337.0       168.5  397.591858   50.481342    5.152061   12.655186   11.673164   -1.183958
       338.0       169.0  398.041199   51.788574    2.123442    5.132975    4.326569    1.469552
       339.0       169.5  398.148712   50.477097    3.110772    7.935135    8.347405    0.535387
       340.0       170.0   398.71933   50.330917    3.381701    7.048466   10.199954   -1.039332
       341.0       170.5   398.21109   50.880936    3.307198    7.211326    7.358887   -1.418707
       342.0       171.0   397.94696   51.108177    4.663314   10.820243   11.708675    1.892856
       343.0       171.5  398.120758   51.245651    4.980319    12.56032   10.384718    0.185816
       344.0       172.0  397.864105   50.892586    4.033757    8.977588    8.004209    1.081257
       345.0       172.5  396.746704   51.424938     5.81968   15.994981   13.663008   -1.553272
       346.0       173.0  397.328857   51.206436    5.877642   23.020058   13.902496    1.804686
       347.0       173.5  397.862793   51.056885    7.435233   19.782358    21.04673    2.132629
       348.0       174.0  398.085144   50.893482    6.760875   15.419948   21.415291    2.144028
       349.0       174.5   398.57193   51.430565    9.066237   25.587545   28.801785   -2.680199
       350.0       175.0  397.736359   50.720398    5.660892   18.629524   13.079056    0.987971
       351.0       175.5   397.43512   51.104851    4.851236   10.600677   18.476685     0.11938
       352.0       176.0  398.455475   51.555862     5.91572   22.463058   16.085827    0.678093
       353.0       176.5  398.262207   51.651367    9.082575   28.631975   23.019028    2.373747
       354.0       177.0  398.095703   51.620251     9.32028   28.323675   27.092409   -0.714603
       355.0       177.5  398.218292   52.208557    7.047509   22.138557   22.630791    1.991423
       356.0       178.0  398.136902   52.361851    8.153433   21.771023   26.293257    2.501975
       357.0       178.5  398.277405   53.036007    6.977016   21.184837   18.496151    1.279909
       358.0       179.0  399.031372   52.196404    6.860417   21.115864   23.646887    4.080333
       359.0       179.5    397.0354   51.888561    9.565842    20.81794   30.020823    0.279258
       360.0       180.0  397.640503   52.230457    8.953846   25.890804   24.320599    3.772997
       361.0       180.5  398.496399   51.993599     8.36612   25.514948   26.831469    5.026811
       362.0       181.0  397.547729   52.291481     6.86164   18.940088   21.088469    4.802455
       363.0       181.5  397.743835   52.211788    7.587491   18.858946   22.799164   -1.278504
       364.0       182.0  397.606171   53.395699    7.070768   24.996382   16.515875   -0.363121
       365.0       182.5  396.705017   52.379234    8.587665    23.42692   21.378298    1.335692
       366.0       183.0  397.126587    53.28595    8.359896   21.812357   19.661917    3.080078
       367.0       183.5  397.053558   52.739258    7.966662   25.060102   21.767818    7.307078
       368.0       184.0  397.611694   53.040558     8.08051   23.092873   24.435925    3.315499
       369.0       184.5  397.437683   53.152863   10.373986   27.116884   29.886765   -3.553569
       370.0       185.0  398.387482   53.034966    8.468244   24.672602   23.839222    5.201168
       371.0       185.5  397.878326   53.368961    6.859787   21.145308   21.697906      3.6659
       372.0       186.0  397.840332   53.449978    8.488414   26.876787   22.285206    2.643495
       373.0       186.5  396.889923   53.878178    8.065087   25.953796   22.115995    3.555753
       374.0       187.0  396.228302   53.447109    8.369555   29.536028   19.209158    2.066215
       375.0       187.5  396.926727   53.628899    9.196775   29.667864   21.136782   -0.634563
       376.0       188.0  396.454437   53.354931    9.010382   25.442347   24.585295    2.055859
       377.0       188.5  396.683563   53.805851    9.114259   34.060017   19.966141    6.036785
       378.0       189.0  396.596039   53.908276    9.489619   33.882614   23.030525    6.171178
       379.0       189.5  396.627716   53.475101    8.085546   26.337778   16.385946   -0.469645
       380.0       190.0  395.932709   53.020855    7.502879   24.731249   29.463213    0.753118
       381.0       190.5  395.575439   53.334648    7.413992   20.959587   20.945093   -0.537097
       382.0       191.0  395.699677   53.772808    8.937711   25.015867   28.916744    1.493301
       383.0       191.5  395.750122    53.45599     9.80111   28.522671   23.630209    0.869034
       384.0       192.0  395.515167    53.51944    7.714865    23.00367   18.612263    4.180265
       385.0       192.5  395.263824   52.913757    8.290311   22.327913   19.485729    2.787842
       386.0       193.0  394.877533   53.454651     8.10465   20.430706   30.116709    -0.22401
       387.0       193.5  395.293488   52.895336    9.081892   27.212141   23.678226    2.782889
       388.0       194.0  395.573792   53.037933    8.199483   19.775558   21.286102    1.510841
       389.0       194.5  395.881927   53.099407    6.504807   16.089931   16.309391    1.123398
       390.0       195.0  394.475494   53.289967    7.682147   22.366671   29.369808   -8.136136
       391.0       195.5   396.81665   53.854984     7.99317   21.325943   19.822956    3.234187
       392.0       196.0  394.703613   53.022099    4.861774   10.640705    13.50726    0.622146
       393.0       196.5  393.757599   52.897545    3.960218    7.620992   13.458817    -1.61755
       394.0       197.0  394.316284   52.083351    2.584306    5.570732    6.346768    -0.56162
       395.0       197.5  395.671295   53.014622    1.173147    1.690782     2.36958   -0.036151
#-----------------------------------------------------------------------------------------------
# experiment: ./TRAJECTORIES
# path: /Users/andreapicco/Google Drive/RESEARCH/TRACKING/Automated_Tracking/TEST/AP2_MOVIE_2/./TRAJECTORIES
# file: trajectory_000559.txt
# dataset: Traj_3_Macro_pDC_Left_Mid_AP2_GFP_LP_fr_600_i_0.5_Airyscan Processing_BG_BL_JTC.txt
# t_unit: s
# delta_t: 0.5
# coord_unit: pxl
# intensity_normalisation: None
