#     frames       t (s)     x (pxl)     y (pxl)           f         u02         u20         u11
       455.0       227.5  244.758606   87.446144    1.055354    4.799261    1.785164     1.15993
       456.0       228.0         nan         nan         nan         nan         nan         nan
       457.0       228.5  243.147202   86.881866    1.152973    7.023518    1.586957    0.714436
       458.0       229.0         nan         nan         nan         nan         nan         nan
       459.0       229.5   243.07991   82.476776    1.537489    4.175756    6.813056    1.441944
       460.0       230.0  244.042892    81.96418    2.244275     5.50542    6.283839    2.214114
       461.0       230.5  245.313858   79.914093    1.350475    4.301455    3.537166   -1.193655
       462.0       231.0  243.775238   80.970001    1.639665    4.625309    2.753837   -0.348715
       463.0       231.5  244.292862   81.135574     2.41762     5.76066    6.656817   -1.031161
       464.0       232.0  243.532089   81.534866    2.406093    5.732329    6.430259    1.197261
       465.0       232.5  243.699692   81.643562    3.065094    7.763104    8.895608    2.170759
       466.0       233.0  244.172653   80.721924    2.002188   10.335928    6.797477    2.445709
       467.0       233.5  243.510696   76.515717    1.481557    8.088614    2.563957    0.622404
       468.0       234.0  243.486526   81.083977    2.082061    5.686609    3.971716    0.080034
       469.0       234.5  241.612732   80.823097    1.489596    3.671528    4.134669    0.565468
       470.0       235.0  243.622299   80.687119    2.505902     6.91978    5.436941   -0.393346
       471.0       235.5  243.621307   81.649658    2.386441    6.722293    5.362798    0.941441
       472.0       236.0  243.242188   81.138489    2.772584    6.892791    6.011668     0.38393
       473.0       236.5  243.643738   81.717491    1.902562    5.204982    6.407495    -0.66455
       474.0       237.0   242.48822   81.410713     3.50254    7.584973    8.954669    1.610533
       475.0       237.5   243.42659   81.029289    2.033781    5.799736    4.036432    0.140147
       476.0       238.0  243.804153   81.437561    3.926358    9.285774    8.871126    0.294041
       477.0       238.5  242.700516   82.233147    1.749033     4.05296    5.533117    0.097778
       478.0       239.0  243.466782   81.399147    2.860668   10.955473    5.797958    2.045534
       479.0       239.5  243.680435   81.459328    3.233959    8.472121    7.115594    0.900369
       480.0       240.0  243.090317   81.598656    3.682293   10.767814    8.495573     -1.0786
       481.0       240.5  242.967667   81.739922    3.234298    8.993999    7.820088    1.162347
       482.0       241.0   242.87468   81.439789    2.925826    8.068378    8.751354    1.226973
       483.0       241.5  244.373337    81.55761    2.341897    4.953618    6.808167    0.102493
       484.0       242.0  243.544174   81.563728    1.961683    6.241239    6.408022   -2.723995
       485.0       242.5  243.564163   82.683327    2.576425    6.702258    5.397179    0.125378
       486.0       243.0   244.77092   81.538582    1.980171    5.895731    3.152916   -0.627034
       487.0       243.5  245.183685   81.915672    2.846853    8.465536    4.455431    -0.43534
       488.0       244.0  244.262772   81.947723    1.648477    4.052059    6.205576   -0.922982
       489.0       244.5   245.27829   82.612137    2.305957    7.744184    6.604384   -1.674018
       490.0       245.0  245.310486   82.120323     2.52749    5.618069    7.546156    0.728554
       491.0       245.5  244.885086   82.219177    3.130959    8.913049    6.485995   -0.427178
       492.0       246.0  245.231964   81.214607    2.070925    4.887443    4.533704     0.16374
       493.0       246.5   245.35408   81.283531    2.864931   11.117558    5.689337   -0.257328
       494.0       247.0  245.528015    81.27787    1.651276    4.576372    2.825312   -0.198587
       495.0       247.5  245.671585   82.884483     2.41477    9.330476     4.68498    1.483835
       496.0       248.0  245.338181   81.404312    3.803795    8.049071     11.7826   -0.137055
       497.0       248.5  245.887451   81.656982    1.981492    3.812848    7.093147   -0.952115
       498.0       249.0   245.19603   81.411255    5.313038   18.178898   12.136035    0.752243
       499.0       249.5  245.873322     81.7659     3.43284    10.39635    8.618758   -3.391398
       500.0       250.0  246.622406   81.232117    4.597468   16.896704   10.154891   -4.202302
       501.0       250.5  245.371643   81.340408     3.75841    8.980806    7.938882     0.63923
       502.0       251.0   245.78537   80.715683    3.348628    7.976841    6.874848   -0.344964
       503.0       251.5  245.174011   82.374603     3.63587   10.317633    7.848073    -0.66601
       504.0       252.0  245.927414   82.321587     3.24402    9.569725   10.315328   -3.415027
       505.0       252.5  246.647354    81.98838    4.105244    9.134969   11.030815    0.405816
       506.0       253.0  246.037216   81.221664    4.139844    6.893281   15.361452     1.13313
       507.0       253.5  247.199203    81.80687    3.971318   14.825918   10.912904   -1.350016
       508.0       254.0  246.772705   81.631905    2.367124    6.806851    5.284998    0.458335
       509.0       254.5   246.11409   80.880043    3.072682    6.717228    7.304954   -0.217609
       510.0       255.0  244.951981   82.086365    5.393707   14.091332    15.48736     0.60656
       511.0       255.5   244.45462   81.516258    3.472232   14.217707    7.796347    0.569972
       512.0       256.0   244.87738   81.583778    3.869569     9.86918    7.462429    0.426916
       513.0       256.5  243.887772   82.076927    3.347925    6.853811    9.652667    1.013653
       514.0       257.0  244.665985   81.375374    4.094276   19.156925    9.347423   -2.087952
       515.0       257.5  243.902161   82.672356    3.591044   11.261997   11.929849    2.854808
       516.0       258.0  244.572876   82.805176    3.414644    11.25839     7.22507   -0.109955
       517.0       258.5  244.087952   81.994308    3.884425   10.882512    7.480639    0.351114
       518.0       259.0   244.64682    82.13298    4.157428    8.786719   10.503212    0.092974
       519.0       259.5  244.296585   82.217178    4.989564   18.469343    10.30173     3.38441
       520.0       260.0  244.314911   81.798431     3.04671    9.580421    7.529556    2.311898
       521.0       260.5  245.046814   83.023499    3.907545   13.012591    8.689422    0.262575
       522.0       261.0  243.464325   83.538879    3.651711   13.538494    8.721519    0.269762
       523.0       261.5  245.490311   83.478981    4.277211   10.981483   11.689825   -1.320304
       524.0       262.0  244.166885   81.153061    2.410777    4.813555    8.186089    0.473674
       525.0       262.5  244.474915   81.777954    1.730699    3.210283     4.50903    1.101611
#-----------------------------------------------------------------------------------------------
# experiment: ./TRAJECTORIES
# path: /Users/andreapicco/Google Drive/RESEARCH/TRACKING/Automated_Tracking/TEST/AP2_MOVIE_2/./TRAJECTORIES
# file: trajectory_001073.txt
# dataset: Traj_3_Macro_pDC_Left_Mid_AP2_GFP_LP_fr_600_i_0.5_Airyscan Processing_BG_BL_JTC.txt
# t_unit: s
# delta_t: 0.5
# coord_unit: pxl
# intensity_normalisation: None
# eccentricity_pval: 0.11405029513831144
# eccentricity_R: 0.7096470828515251
