#     frames       t (s)     x (pxl)     y (pxl)           f         u02         u20         u11
        43.0        21.5  251.710754   59.412712    1.341832    2.482801    4.663136   -0.070402
        44.0        22.0  254.001862   58.108177    1.090315    2.194894    3.415905    0.895711
        45.0        22.5  250.788284   58.600788    1.651348    3.726796    4.582302   -0.904815
        46.0        23.0  249.664185    58.50391    2.628013     7.02683    6.705413    1.156488
        47.0        23.5  251.019714   57.643494    2.242834    4.687157    5.857442    0.738755
        48.0        24.0  248.351257   57.084431      1.4065    4.333255     3.44556     0.61769
        49.0        24.5         nan         nan         nan         nan         nan         nan
        50.0        25.0  249.240616   58.517071    3.074476   11.036624    6.891554    1.943309
        51.0        25.5  249.052994   57.714405    6.496747   16.981468   16.455956     2.18402
        52.0        26.0  249.251297   57.581387    2.841393    8.394408    8.230577   -0.905512
        53.0        26.5  248.479874   58.505501    3.588985    8.571256   11.494412   -2.614578
        54.0        27.0  248.779785   57.691502    3.846305    9.317582   11.265936    0.012349
        55.0        27.5  249.277176   58.472897    3.010335    7.913659    7.195145   -1.349626
        56.0        28.0  248.700729   57.432213    5.822023   15.369189   15.888527   -1.687615
        57.0        28.5  248.769821   57.056717    3.742563   10.515087   12.802361   -2.642015
        58.0        29.0  248.727188   57.534416    5.059834   17.201855   11.805696    3.541802
        59.0        29.5  248.931885   56.979374    2.859333    7.242013    7.642108    1.346861
        60.0        30.0  248.388916   57.266506    4.881045   15.647097   11.989368    1.016677
        61.0        30.5  247.763916   56.995228    4.898587   12.868647   10.233814   -0.028202
        62.0        31.0  248.685745   56.782001    4.904046   14.887461   11.934793    0.356639
        63.0        31.5   248.41481   57.258907    6.380425   14.219208   17.385757     0.10936
        64.0        32.0  248.154831   57.357246    7.155778   25.264456   15.352169    0.307303
        65.0        32.5  248.213196   58.004417    7.179733   18.212667   17.037458    1.252876
        66.0        33.0  248.898254    58.21841    5.790128   16.566437   15.125802    0.790962
        67.0        33.5  247.698959    58.15361    5.951604    19.18759   15.307243    0.364099
        68.0        34.0  248.445419   57.955185    6.601325   15.287041   22.723614   -1.636193
        69.0        34.5   248.13649   57.794529     6.04299   25.474075   12.057398    0.711537
        70.0        35.0  248.289078   57.424438    6.478024   20.811611   15.840697   -0.099837
        71.0        35.5  247.947189   58.310539    8.507606   25.122704   21.223064   -1.832855
        72.0        36.0  247.738174   58.013577    6.947148   17.795866   14.809087   -1.022155
        73.0        36.5  248.245895   58.401188   10.182466   32.368736   22.724178   -0.692126
        74.0        37.0  247.845276   58.896202    8.371775    28.40132   18.245758    -0.42997
        75.0        37.5  248.393158   57.885551    7.523185   19.412863   19.048687   -0.530578
        76.0        38.0  247.864197   58.207157    8.143463   22.145607   21.239157   -2.370394
        77.0        38.5  247.236252   58.665192     8.81321   28.053093   21.669546   -1.180579
        78.0        39.0  246.741135   58.464691    7.035646   19.835522    16.82304    0.455334
        79.0        39.5  247.116364   58.758366    8.745921   27.302509   18.743757   -1.433093
        80.0        40.0  247.758133   58.587082    7.820366   31.767822   16.425856     2.96255
        81.0        40.5  247.395325   58.390194      9.9087    27.18659   26.005508    4.364761
        82.0        41.0  247.590866   59.073063    7.262739   30.565125   21.218601      2.4773
        83.0        41.5  247.546158   59.550419    7.966391   27.217123   21.167337   -0.263698
        84.0        42.0  247.399033    58.95443    6.649452   20.907715    16.08308     1.62862
        85.0        42.5  247.897507   58.932865    7.294655   17.190401   16.467665   -1.508903
        86.0        43.0  248.396667   58.599384    7.450123   23.735981   19.918436    4.027942
        87.0        43.5  247.339661   58.999962    7.877194   28.740404   16.229126    1.432895
        88.0        44.0  247.356216   58.408543     9.14252    32.37315   20.555099   -1.841035
        89.0        44.5  247.668091   59.052391    9.356516   25.631737   26.849419    5.075779
        90.0        45.0  248.077194   59.039761     7.12606    20.90575   16.184929      2.6401
        91.0        45.5  247.887161   58.519676    9.414755   28.337746   19.550982    0.871307
        92.0        46.0   246.69548   59.268757    7.438375   23.505373   18.170795    0.334114
        93.0        46.5  247.490555   58.748444     7.10444   25.289845   16.440544    1.879203
        94.0        47.0  246.881149    58.63628    8.047029   22.147551    17.52277    3.950611
        95.0        47.5  247.722031   59.228115   11.022921   29.909056    24.63723   -0.094179
        96.0        48.0   248.01889   58.907528    8.498177   25.714186    22.70126    3.235949
        97.0        48.5  247.779541   59.124519     8.91341   25.670996   21.078045   -0.941784
        98.0        49.0  247.558746   59.427437    7.862129   24.444574   22.427156   -1.741182
        99.0        49.5  246.954773   59.621834    7.105446   24.633633   14.193166   -0.817959
       100.0        50.0  247.128708   59.309715    6.769757   19.946629   14.633146    0.885771
       101.0        50.5  245.676208   60.313694    7.264941   26.292389   17.330141    4.150005
       102.0        51.0   247.82692   60.174999    6.586176   20.547579   14.646916   -1.315936
       103.0        51.5   247.81163   60.120327    6.537031   20.479534   14.584229   -1.605778
       104.0        52.0  247.648254    60.41087    7.338973   29.080254   16.462553   -1.675915
       105.0        52.5  247.352219   60.589256    7.175858   25.760218   15.011945   -1.008818
       106.0        53.0  247.900314    59.99284    7.428169   27.190924   15.845228   -0.726163
       107.0        53.5    247.6138   60.261818    8.914299   33.259129   18.025558    1.433053
       108.0        54.0  246.561523   60.339138    7.688844   26.259321   18.251629    3.436404
       109.0        54.5  247.219803   60.505253    7.790832   21.852396   17.569254    2.045825
       110.0        55.0  247.350555   61.146454    6.428951   17.440054   17.920406    3.330774
       111.0        55.5  247.123932   61.254635    6.810384   24.604555   13.219354    0.417535
       112.0        56.0  246.693573   60.728844    8.366029   24.616171   21.159609    -2.08191
       113.0        56.5  246.725937   60.612583    6.115938    16.73247   14.987101   -0.584069
       114.0        57.0   247.59169   60.570999    6.403347   21.065325   18.639973   -0.831375
       115.0        57.5  248.363358   60.155605    6.059636   16.493702   14.435294    1.129128
       116.0        58.0  247.946198   60.020874    7.146603   21.973236   19.428101   -5.085729
       117.0        58.5  247.968948     60.2519    6.725646   21.504416   16.777975   -2.802607
       118.0        59.0  247.288513    60.16396    6.360471   18.676567   17.249271   -2.781642
       119.0        59.5  247.554459   60.451298    6.895859    24.38073   19.739611    4.909177
       120.0        60.0   246.51973   61.024349    5.728569   24.499672   12.699256    0.395904
       121.0        60.5  247.865479   59.554153    5.402722   16.685999    15.07911     2.41931
       122.0        61.0  247.395035   59.634109    4.866178   15.755274   11.578872   -1.988236
       123.0        61.5  248.315674   59.867573     5.57407   17.636414   16.755087    2.715175
       124.0        62.0   247.90036   59.507065    7.551954   22.163786   20.208731    1.981715
       125.0        62.5  246.984497   58.727032    6.059824   19.754328   14.132463    0.110274
       126.0        63.0  247.635712   59.355179    6.728891   21.179855   15.043923    1.917868
       127.0        63.5  246.940536   60.241314    5.213229   13.123692   11.552383    0.255299
       128.0        64.0  244.579529    60.67617    5.578734   14.637275   20.092075    2.443542
       129.0        64.5  247.206619   60.610332    5.705708   19.331989   11.290627    1.230144
       130.0        65.0   246.33313   60.496784    5.006576   14.870839   12.333782   -2.447607
       131.0        65.5  246.093201   60.816185    5.267259   14.430523   15.427879   -0.968134
       132.0        66.0  246.661316   60.071533    5.530405   16.156292   13.544867   -0.125342
       133.0        66.5  246.985001   60.995281    5.040304   21.602108   10.054967   -1.253197
       134.0        67.0  246.317947   60.128792    6.349529   19.044966    16.37896    1.914718
       135.0        67.5  247.528961   60.059998     6.26292   22.265816   16.681175    2.290569
       136.0        68.0  247.523468   60.066147    6.957434   18.555882    19.74507     4.71522
       137.0        68.5  247.313858   60.776131    6.637394   21.875784   14.369052   -2.633837
       138.0        69.0  247.230621   60.357952    5.934482   22.610035   12.972125     1.26795
       139.0        69.5  247.192261   60.988125    7.148575   20.784988     15.3822    0.212216
       140.0        70.0  247.039673   60.752567    6.882006   22.115774   16.870216   -1.141255
       141.0        70.5  245.450623    61.28138    7.690905   23.059799   21.253839     5.52783
       142.0        71.0  245.879837   61.112488    6.735272   24.006884   14.959541   -0.766575
       143.0        71.5  245.462875    61.02198    7.457184   25.087053    17.11434    0.368226
       144.0        72.0  245.875473   60.951252     5.56699    18.74651   11.378401    0.943554
       145.0        72.5   245.93306   60.886765    4.793302   10.277575   13.559617    0.393944
       146.0        73.0  245.179459    61.20491    6.810226   22.526312   13.703901     2.38278
       147.0        73.5  245.820374   60.462994    6.154169   17.536102   16.046017    1.654741
       148.0        74.0  245.088364   61.622654    6.035069   17.579676   13.376913    0.673469
       149.0        74.5  244.979385   61.513851    6.036102   16.682499   14.664491   -0.196968
       150.0        75.0   245.76622   61.359249     8.15622   21.557468   17.297506    1.133433
       151.0        75.5  244.565582   61.189201    5.518406   17.395977   12.841683    0.238084
       152.0        76.0  244.909546   60.276402    7.429829   21.956846    16.67717   -0.659229
       153.0        76.5  244.331741   60.669952    6.371538   16.589645   15.097427   -0.252928
       154.0        77.0   245.19577   60.664467    5.907083   22.913458   14.238164    2.247462
       155.0        77.5  245.073395   59.373837    5.766582   17.295719   12.699438    1.859781
       156.0        78.0  244.034286   59.385796    6.705138   20.507435   17.671972   -1.076192
       157.0        78.5  243.720505   59.341782    5.948079   17.321394   16.936687   -1.073027
       158.0        79.0  243.835648   59.629791    6.438945    16.59149   14.263492    1.679308
       159.0        79.5  244.510803   60.038189    6.075111   18.654371   15.917329    0.603429
       160.0        80.0  243.783936   59.895615    7.006766   23.083755   16.886505   -2.199959
       161.0        80.5  244.218735   60.218025    7.088257   24.375658    19.69735   -1.878565
       162.0        81.0  243.189468   60.126854    7.259676   22.747585    14.84683   -1.570099
       163.0        81.5  243.676437   60.056988    7.032063   20.540642   16.410313    0.272485
       164.0        82.0  243.362061   59.857758    8.179811   21.091251   23.008545    1.657845
       165.0        82.5  243.046234    59.97224    7.597807    26.10137    19.18889     1.89293
       166.0        83.0  243.197754    61.04134    6.598849   17.066492   16.661522   -0.001652
       167.0        83.5   242.25798   60.524136    8.405009   30.217302   22.488363    2.481189
       168.0        84.0  242.588272   60.097687     8.49686   23.426304   23.473719    -1.02949
       169.0        84.5   243.08403    60.48951   11.939212   35.463646    31.18622    4.914193
       170.0        85.0   242.45787   61.020859   11.052972   32.075981   39.407162   -4.356676
       171.0        85.5  242.698013   61.234112   10.609382   38.997849   24.832119    4.099748
       172.0        86.0  242.807343   60.749241   10.037376   35.912483   29.950436   10.639893
       173.0        86.5  243.425369   60.073315   12.445032   35.556801     34.6646    8.256316
       174.0        87.0   243.48465   60.324749   12.253761   36.012768    37.10503    1.440807
       175.0        87.5  243.928192   60.409966   11.182004   31.641016   32.553551    5.708191
       176.0        88.0  243.954712   60.579712   11.258407   39.466042   26.248798    3.783179
       177.0        88.5  243.933395   60.293667   15.308164   45.150764   35.688053    4.300533
       178.0        89.0  243.877106   61.056293   12.824761   42.296631   49.930817   12.378985
       179.0        89.5  244.163895   61.150681   14.297517   42.227684   41.654541    0.664477
       180.0        90.0  243.963028   60.691547   14.855589   50.033993   33.022903    7.061486
       181.0        90.5   244.44133   61.043125   11.932398   31.676981    40.86013    4.693368
       182.0        91.0  244.182114    61.27998   10.140426   34.416138   36.010647     4.39104
       183.0        91.5  244.281326   61.163273   13.971722   47.987015   44.863014   11.513412
       184.0        92.0  243.411911   61.413776   10.890759   35.569038   37.900581   10.154444
       185.0        92.5  244.634995   62.004761    8.798424   38.653172   26.195663    6.951811
       186.0        93.0  243.490997   61.114616   10.919743   37.853653   38.835251    7.469375
       187.0        93.5  245.010178   61.764759    9.737162   26.154539    34.05159    6.611537
       188.0        94.0  244.464218   61.643398   11.716541   46.772289   34.565876   14.991869
       189.0        94.5  244.018036   62.093781   10.636596   41.537182   34.732994    9.209109
       190.0        95.0  244.103546   62.239567   12.791769   41.465359    49.06934   16.679789
       191.0        95.5  244.754364   62.972561    10.17853   34.317768   36.353565    8.222048
       192.0        96.0   244.50322    62.65099   11.063358   45.504383   30.671158   13.086475
       193.0        96.5  244.024139   63.194344    9.389977   31.042694   31.845676    4.096504
       194.0        97.0  244.317978   62.575367   10.873576   39.406719   33.677521     6.39902
       195.0        97.5  244.364838   63.188652   10.987694   44.775433   29.826826    8.477654
       196.0        98.0  244.184021     63.2169   11.517415   44.069077   37.667175   16.949129
       197.0        98.5  244.188553   62.899002   12.022651   45.597878   35.687634   12.041535
       198.0        99.0  243.800018    63.32058   14.394493   52.444855   34.752541    7.217655
       199.0        99.5  243.775009   63.130596   11.863935   28.350868   43.559395     5.64463
       200.0       100.0  244.141525   63.120449    9.002527   31.409462   28.217972    8.668053
       201.0       100.5  243.893646   63.162449   10.538255   32.748772   35.001423      8.3526
       202.0       101.0  244.211761   63.428864    9.357401   28.406208   25.215267    7.078446
       203.0       101.5  243.919922   62.797283    8.064999   25.269369   24.946543    0.169302
       204.0       102.0  243.820343    63.18227   10.827622    42.64679   22.643538    2.008758
       205.0       102.5  243.666443   63.257599    8.898704   22.163986   29.163343    0.162887
       206.0       103.0  244.319672   63.099876    8.052469   24.503836   19.980677    3.560661
       207.0       103.5  244.250656   64.016037    7.864889    22.68329   20.505198    2.674525
       208.0       104.0  243.688522   63.354401    4.140719   14.313921   10.558931    2.451576
       209.0       104.5  243.595779   62.962013    6.001377    24.70365   12.479669    2.279332
       210.0       105.0  244.163574   63.061577    6.659861   21.993906   15.428505    1.548325
       211.0       105.5  244.171371   63.467453    7.725442   22.036861   18.128742    0.754245
       212.0       106.0  244.983063   62.805634     6.58393   18.021223   20.594368   -1.801701
       213.0       106.5  244.150574   62.915977    6.726152   16.952877   20.706781    1.524996
       214.0       107.0  244.381699   63.732559    4.666033   13.676183   11.168369    0.297809
       215.0       107.5  243.960602   63.382309    8.015787    28.11212   16.103512   -1.743361
       216.0       108.0  244.939224    63.86837    5.717703   17.896854   11.388606    0.610674
       217.0       108.5  244.235214   64.240807    5.793947   18.521528   14.295978    2.611523
       218.0       109.0  243.802887   64.156418    5.618972   13.596198   18.392633   -2.129565
       219.0       109.5  244.629364   64.657913    5.539189   18.841757   13.385271    2.617226
       220.0       110.0  244.642654   63.966175    6.920274   26.492102   14.273137   -0.101955
       221.0       110.5  244.654037   63.956806    5.552536   20.019892   14.719768    1.650031
       222.0       111.0  245.040939   64.100037    6.713499   16.407465   15.107948    1.390025
       223.0       111.5  245.214828   64.193787    4.485977   17.402571   10.462526   -0.071845
       224.0       112.0  245.060226    64.19619    3.912918   10.104282   10.585622    0.895422
       225.0       112.5  244.993179   63.774944    5.729937   15.049507   14.045853    0.321812
       226.0       113.0  244.908707   63.998322    6.321033    25.26795   12.780718   -0.352137
       227.0       113.5  245.094757   63.972828    5.551921   17.789927    13.67425    0.919368
       228.0       114.0  245.756271   64.331902    6.561127   18.390697   16.532187   -0.643382
       229.0       114.5  245.295349   63.811886    6.916035   27.906816   13.820823    5.054728
       230.0       115.0  245.061356   63.272659     8.14362   33.118824    15.77769     0.35039
       231.0       115.5  245.795731   64.760612    5.721317   14.730625    12.25392    0.721991
       232.0       116.0  245.867844   65.624344    5.353316     18.9146   12.587317    2.666312
       233.0       116.5  246.230194   64.481583    4.290505   17.621822   10.655787    3.188984
       234.0       117.0   246.43811     63.5243    5.022747   17.048939    13.36455   -1.558497
       235.0       117.5  245.884613   64.360313    4.398145   12.865705    9.728126    0.354146
       236.0       118.0  245.852875   64.965111    5.464098   23.148201   13.009823    1.662145
       237.0       118.5  245.785797    64.10955    4.140667   14.973141   10.256133    -2.78331
       238.0       119.0  246.369995   65.213829    4.515847   17.495062    9.468388   -1.381862
       239.0       119.5  245.216324   63.575466    4.685688   14.221272    12.09731    0.519722
       240.0       120.0  246.200134   63.843483    3.216908     9.84203   10.538962    2.345547
       241.0       120.5  245.825775   64.189774    3.683756   12.539435    7.568707   -1.067705
       242.0       121.0  245.991272   63.455284    4.924959   17.560366   10.884287   -0.526056
       243.0       121.5  245.649368   64.019745    5.202246   12.200221   14.168977    -0.23705
       244.0       122.0   245.61586   64.711685    3.280827    8.644121    6.986223    1.598755
       245.0       122.5  244.960861   63.831509    4.945835   15.958239    9.134308   -0.497943
       246.0       123.0  244.494202   63.932583    3.593815    8.787027    9.876063    1.471217
       247.0       123.5  245.247253   65.365135    4.477182   15.088047    9.393996    2.812359
