#     frames       t (s)     x (pxl)     y (pxl)           f         u02         u20         u11
       489.0       244.5  145.306732   99.735207    1.605032    4.456324    4.777115    0.474802
       490.0       245.0  141.920303  100.168159    1.937351    3.735018    7.283202   -0.484551
       491.0       245.5         nan         nan         nan         nan         nan         nan
       492.0       246.0  142.327789  100.426697    2.204654    8.580372    6.021023     0.83196
       493.0       246.5  142.270645  101.046898    1.920023    5.544164     4.94211   -1.150269
       494.0       247.0  142.145096  100.674149    2.301049    6.764859    4.813918    1.321465
       495.0       247.5  144.511047  101.272171    3.166813    5.576512   13.085267    2.053204
       496.0       248.0  142.894958  100.594406     1.98573    5.685101    8.200323   -1.504407
       497.0       248.5  142.532883   101.44677    3.084157    9.938025    7.725481     3.05579
       498.0       249.0  142.429947  101.134247    4.594496    8.074377   19.843824   -1.818886
       499.0       249.5  143.754837  101.239548    4.645748   11.962537   18.290962    0.700567
       500.0       250.0  142.416931  101.003647    4.741862   13.582282   14.169499    1.835323
       501.0       250.5  143.736603  100.892868    4.690983   17.268484   12.749024    2.870672
       502.0       251.0  143.721909  101.807251     4.97021   12.740391   15.539355    2.036276
       503.0       251.5  143.595108  101.805275     5.59005   13.070156    17.57465    2.620082
       504.0       252.0    143.1362  100.679138    4.748199    9.753849   13.732858    0.851739
       505.0       252.5  142.680832  100.539955    3.929458   13.914671   10.894203   -0.991007
       506.0       253.0   143.15477  101.196861    4.090405   13.011246   13.922283    2.117949
       507.0       253.5  143.314148   101.18103    6.148491   13.995378   22.614803    2.856587
       508.0       254.0  143.535995  100.846909    4.814554   14.427513   18.587471    2.805696
       509.0       254.5  143.029083  100.430084    5.777633   13.277627   19.840546   -2.212797
       510.0       255.0  142.612869  100.626816    5.748709   17.449551   17.124851    5.502095
       511.0       255.5  142.823898  100.763573     6.16538   16.113543   23.211046    3.265971
       512.0       256.0  141.979904  100.283768    6.591639   15.754427   22.033302   -0.897606
       513.0       256.5  141.857773   99.974037    6.500926   14.679284   23.614723    1.238036
       514.0       257.0  142.341446    99.55172    8.359484   21.485357   32.459705    6.461612
       515.0       257.5  141.446945   99.930939    6.607995    12.52662   28.072578    0.273148
       516.0       258.0  141.230408   99.931053    6.965421   15.948486   30.367123   -1.054008
       517.0       258.5  141.495941     99.9664    6.430553   16.580503   26.368176   -0.368884
       518.0       259.0  142.188614   99.947266    3.999781    9.765731   15.847831     3.96115
       519.0       259.5  141.096802  100.581612    6.683004   16.045725   25.285686   -0.415541
       520.0       260.0  141.528793   99.913788    6.636183   18.460499   22.289663     1.81007
       521.0       260.5  142.113571   99.401474    8.553525   29.408188   22.913214   -0.817808
       522.0       261.0  141.486511   99.900955    6.765618   16.323034   27.516876    0.847677
       523.0       261.5  141.219406   99.425392     7.35315   22.126442   25.069721   -6.714194
       524.0       262.0  142.058594   99.453835     7.90004   22.117594   27.717764    2.560254
       525.0       262.5  141.062119  100.173882    8.139152   18.559467   33.827938   -0.471061
       526.0       263.0   141.44754   99.501587    7.962758    22.02248    28.76321   -3.284168
       527.0       263.5  141.999725   99.923492    7.961339   21.664658   31.280865    1.727255
       528.0       264.0  141.002441   98.931633    7.063041   18.389671   22.831905    1.452451
       529.0       264.5   141.57518   99.721016    7.193301   16.737307   23.577604    2.339807
       530.0       265.0  140.713501   99.590698    9.650756   23.872673   33.154671    3.607884
       531.0       265.5   141.45282   99.526985       8.823   26.234146   26.509953   -1.357923
       532.0       266.0   142.06192   99.970207    7.715634   15.707439   35.024693    1.064964
       533.0       266.5  141.959793   99.387741    9.015735    27.16021   35.219849   -3.856616
       534.0       267.0  141.106064  100.548157    9.454961   28.328329   45.256691   -6.593149
       535.0       267.5  141.049377  100.343048    9.517775   22.461538   39.172497    3.537713
       536.0       268.0  142.016632  100.129593    9.639121   20.167788   32.615028    0.177841
       537.0       268.5  141.911728  100.497917    8.971339   23.260412   38.890324   -1.331845
       538.0       269.0  142.507706    99.33474    8.073858   23.573809   32.754917    2.576523
       539.0       269.5  142.502823   99.965538    8.865865    22.92963   38.017483    1.904364
       540.0       270.0  142.273987   99.786499   10.326854   29.414631    27.83287   -0.589369
       541.0       270.5  142.844894  100.650513   12.778966   39.637733   33.735859    1.130174
       542.0       271.0  142.123718   99.804642    9.940207   25.435291   40.334877   -5.764259
       543.0       271.5  142.597275  100.113983   12.392797    26.88389   47.611012   -3.237168
       544.0       272.0  142.189026  100.092499   10.298017   25.523006   40.149307   -0.125701
       545.0       272.5  142.365799   99.979439   12.968332   33.956936   44.910988   -2.701674
       546.0       273.0  142.891495   99.750473   12.008218    31.95813   46.799274   -1.998299
       547.0       273.5   141.90834  100.599983    10.64744   24.774719   40.747173   -1.565923
       548.0       274.0  141.813232   99.715149   13.772904   40.447636   45.187244   -6.429649
       549.0       274.5  140.765137   99.756874   14.625089   33.313198   58.349754   -3.374758
       550.0       275.0  141.795929  100.160759   12.633794   29.313885   48.001606    2.884284
       551.0       275.5  142.529922  100.297493   11.660935   36.295277   42.491386    2.224801
       552.0       276.0  142.105652  100.580109   11.403844   32.311783   44.833855   -4.181496
       553.0       276.5  142.368118  100.366196   13.725161   40.565804   43.899963    5.544284
       554.0       277.0  142.594849  100.444977   15.879737   40.305801   56.417202    3.610293
       555.0       277.5  142.413834  100.510445   12.687987   37.117481   46.745289    -2.62454
       556.0       278.0  141.226898  100.433022   16.883987   49.416889   50.063477    4.073545
       557.0       278.5  141.797485  100.222153   14.445199    33.74799   57.824085     4.49935
       558.0       279.0  141.571014  100.212891   16.289915    39.73138   63.306244    4.807228
       559.0       279.5   140.99118  100.017036    17.65015   47.372364    71.08168    4.817311
       560.0       280.0         nan         nan         nan         nan         nan         nan
       561.0       280.5  141.035126  100.146866   14.017537    31.51342   56.280849    3.026788
       562.0       281.0  142.589081  100.192017   11.582514   34.252937   40.956921   -3.580088
       563.0       281.5  142.548233  100.439819   13.784394   36.357346   60.177071      5.0161
       564.0       282.0  141.635071  100.126877   15.177876   38.193977   55.617954    0.769574
       565.0       282.5  141.861771   99.857224   13.084304    37.56728   41.707382   -2.094064
       566.0       283.0   141.76474  100.081108   10.049794   19.202673    47.60865    5.773711
       567.0       283.5  143.516434   99.861885   11.489277   29.104944   38.428417   -0.929655
       568.0       284.0  140.891205   99.682961    12.28774    29.48365   61.738831   -5.353942
       569.0       284.5  140.757294    99.79248   12.611338   25.537111   57.387444   -0.333381
       570.0       285.0  140.801254   99.029434     8.76096   17.923817   50.443176    1.155237
       571.0       285.5  141.636368   98.890022     6.84126   11.926487   42.940861   -1.638861
#-----------------------------------------------------------------------------------------------
# experiment: ./TRAJECTORIES
# path: /Users/andreapicco/Google Drive/RESEARCH/TRACKING/Automated_Tracking/TEST/AP2_MOVIE_2/./TRAJECTORIES
# file: trajectory_001222.txt
# dataset: Traj_3_Macro_pDC_Left_Mid_AP2_GFP_LP_fr_600_i_0.5_Airyscan Processing_BG_BL_JTC.txt
# t_unit: s
# delta_t: 0.5
# coord_unit: pxl
# intensity_normalisation: None
