#     frames       t (s)     x (pxl)     y (pxl)           f         u02         u20         u11
       417.0       208.5  282.069946  128.211105    1.584516    5.287265     2.46494    0.133459
       418.0       209.0  282.940552  128.655792    1.286723    2.612968     3.29516    0.443723
       419.0       209.5  287.235077  129.809097    1.525085    6.206788    3.859519    1.802378
       420.0       210.0  285.501373  128.520126    0.949379    2.415022    1.606628   -0.107622
       421.0       210.5  285.611786  129.629517    1.526678    4.432207    4.354371    2.078393
       422.0       211.0  285.924683  130.019485     1.72145    8.555674     2.44231   -0.271076
       423.0       211.5  284.264709  127.279091    1.220352    2.863046     2.42166    0.466292
       424.0       212.0  286.245483  129.431503    1.235449    3.671419    3.852049     0.06178
       425.0       212.5         nan         nan         nan         nan         nan         nan
       426.0       213.0  287.962067  128.024155    1.746125    4.451693    4.954645   -0.510604
       427.0       213.5         nan         nan         nan         nan         nan         nan
       428.0       214.0  287.346436  128.078354    1.132065    3.703073    2.162641    1.063151
       429.0       214.5  287.226959  128.023071    2.021635    4.289812    7.315792    1.608541
       430.0       215.0  287.766724  127.158134    1.487532   10.329726    2.507803    0.393464
       431.0       215.5  287.881409  129.999695    1.098751    4.293231    1.802375    1.042818
       432.0       216.0  289.182556  128.070541    2.176097    7.090287    4.911876    1.174375
       433.0       216.5  287.871429  127.647423    1.213834    4.171997    2.708164   -0.787045
       434.0       217.0  287.959869  129.400986    2.288535    7.854791    3.925628     1.14317
       435.0       217.5  288.538361  125.805145    1.951856    6.348257    6.083393    0.105624
       436.0       218.0  287.434784  127.919403    1.808883    4.741534    3.833218    1.012434
       437.0       218.5  288.475311  128.274551    1.795796    5.618727     4.01046     0.18683
       438.0       219.0  288.889313  128.875015    1.239436    2.305629    6.068741    1.576571
       439.0       219.5  290.217712  128.579727    2.165609    7.078475    3.571952    0.690624
       440.0       220.0  290.481018  129.114914    1.770306    4.331382    3.870107    1.084944
       441.0       220.5  292.111877   128.54834    2.211764    7.702842    3.524588    0.286621
       442.0       221.0  291.751831   127.87513    2.444483   13.624202    4.432388    2.914775
       443.0       221.5  291.889587  128.840408    2.878889    9.262814    9.254072    3.306279
       444.0       222.0  291.460175  129.407089    3.330183   13.355888   11.335066    2.592437
       445.0       222.5   291.19635  128.372772    1.984294    8.847363    4.585652    3.260834
       446.0       223.0  290.906494  128.794205    3.710365    13.82003    6.690792    0.731129
       447.0       223.5   290.63089  128.766769    1.999763    6.819616    4.107786    0.877595
       448.0       224.0  292.023346  128.381317    2.349335     8.14226    6.002977    3.064892
       449.0       224.5  290.764587  129.626282    1.855627    7.516242    3.612237    0.086759
       450.0       225.0  291.873138   127.64167    1.593663    5.122789    3.295638    1.678609
       451.0       225.5  290.748077   129.88826    1.626411    8.697145    3.123179    1.265473
       452.0       226.0  289.866974  126.208221     1.03558    4.115454    1.554231   -0.577725
       453.0       226.5  292.339325  128.566406    0.970734    3.081143    2.637266    0.688927
       454.0       227.0         nan         nan         nan         nan         nan         nan
       455.0       227.5  287.153595  124.224678    0.899412    2.722713    1.114203    0.166314
       456.0       228.0         nan         nan         nan         nan         nan         nan
       457.0       228.5  281.567169  119.943794    1.144995    2.740884    4.466063   -0.986746
       458.0       229.0  280.948364  118.949623    1.517215    2.679736    5.581183   -0.674898
       459.0       229.5         nan         nan         nan         nan         nan         nan
       460.0       230.0  280.259338  119.093025    3.451413   11.201631    7.854644    2.999821
       461.0       230.5  282.263367  119.008926    3.011673    7.046931    6.841568    0.669173
       462.0       231.0   282.00351  120.486839    3.186638    9.227663     8.39689   -0.046285
       463.0       231.5  281.154449  120.033386    2.879066    7.140099    8.337274    0.221114
       464.0       232.0  280.842987   119.73262    2.756723    6.413329    7.002038   -0.988084
       465.0       232.5  281.339081  119.733833    3.610611    7.980022    9.652496    0.335762
       466.0       233.0  281.501648  120.162804    3.758094    7.481537   13.852454   -0.008453
       467.0       233.5  281.043732  119.660164    4.221247   12.284942    8.948951   -0.042479
       468.0       234.0  282.066437  119.464905     3.92279   10.064136   11.553021    0.377251
       469.0       234.5  280.757507   119.86055    4.377193    12.23379   16.697149    2.218205
       470.0       235.0  280.462219  119.664185    4.878877   12.732358   20.702345   -3.389733
       471.0       235.5  281.314392  118.424179    2.518848     5.49306    9.662201   -1.565299
       472.0       236.0  279.876129  120.111031    3.672531    9.212757     15.2964    4.528995
       473.0       236.5  280.644775  119.649361    4.301711   14.857702   10.505028    0.249829
       474.0       237.0  280.447235  120.265144    3.400599    9.127944   10.887275   -0.268505
       475.0       237.5  280.768005  120.393875    3.596062    9.409757    9.399734   -0.270171
       476.0       238.0  280.315491  120.868034    2.598548    6.399725    7.191225    0.227224
       477.0       238.5  279.924103  120.352425    6.282452   17.340767   21.681351   -1.544806
       478.0       239.0   280.74588  120.941429    5.718669   19.307877   14.268389    2.457758
       479.0       239.5  281.925476  120.278282    5.550546   11.674275   16.381472    1.042614
       480.0       240.0  281.413757  120.514107     9.14995   21.467453   25.061914   -0.217278
       481.0       240.5  281.503784  120.001251    4.876105   12.290074   15.578604    0.668815
       482.0       241.0  281.905396   120.22924    6.556466   14.956285   21.132307    3.702883
       483.0       241.5   280.57309  120.028091    6.305619   15.752873   16.086298     1.25943
       484.0       242.0   281.45697  119.784508    7.014605   17.664034   19.884401    3.354302
       485.0       242.5  281.912201  120.294029    5.844631   19.382446   17.032986    5.499177
       486.0       243.0  281.581268  119.691948       7.034   16.446878   21.776037   -0.210658
       487.0       243.5  281.569427  120.500252     7.48224    23.27729   26.174126    6.044303
       488.0       244.0   281.15979  120.421631    6.605843   16.777866   17.194221    0.079652
       489.0       244.5  282.218079   120.48008    8.450386   21.967913   21.435261   -0.911137
       490.0       245.0  282.289734  120.404327    6.021814   14.744007   27.992466    6.639492
       491.0       245.5  281.823334  119.413033    6.490534   20.317579   26.331488    4.525973
       492.0       246.0  281.654144  119.698845    6.142381   19.931805   19.404673   -1.247583
       493.0       246.5  282.103027  119.890778    6.871746   15.973022   21.757347    2.067113
       494.0       247.0  282.141327  119.951141     5.76797   15.552195   14.217355    0.962011
       495.0       247.5  281.979767  119.788567    6.034413   15.376174   16.746056    1.784607
       496.0       248.0  281.595215  119.798492    7.987985   26.060068   21.161707    0.497142
       497.0       248.5  281.683258  119.923378    9.361794   20.697088   27.084335    0.434808
       498.0       249.0   281.58075  119.819443    10.01908    21.85708   27.329737   -0.854607
       499.0       249.5  281.407745  120.034256   10.102786   23.325329   30.306816    1.593868
       500.0       250.0  281.638824  119.319687    8.805711   21.572325   20.633629   -1.255967
       501.0       250.5  281.307251  119.868217    7.186904   20.591387   24.671724    1.086751
       502.0       251.0  281.480133  120.460327    7.503011   20.661053   17.116468    4.217387
       503.0       251.5  281.015717  119.355949    6.657203   17.872238   20.029778   -1.875663
       504.0       252.0  281.935547  118.740097   10.375492   25.424894   39.260242    6.285506
       505.0       252.5  281.690979   118.86528    8.439455   22.407909   18.998972    3.449449
       506.0       253.0  281.659973  119.476677    7.366118   24.920137   23.062687    5.837391
       507.0       253.5  282.177765  119.173241   10.293063   30.934731   26.797464    6.727407
       508.0       254.0  281.825348  118.600021   10.184484   32.760723    26.28657   -1.754076
       509.0       254.5   281.77713   119.09259    8.777603    22.36903   26.433949     3.12026
       510.0       255.0  281.359711  118.573982    8.856682   24.157188   30.048527     1.82188
       511.0       255.5  281.701599  118.058769   10.190434   24.122524   32.273323   -3.084555
       512.0       256.0  280.904114  118.719063    8.256302   24.305946    20.54781   -0.191683
       513.0       256.5  280.679352  118.779106    9.125107   26.246361   27.801491    5.284015
       514.0       257.0  280.968781  118.683678   10.863925   31.464361   31.026438    1.065722
       515.0       257.5  280.881744  118.871025   10.484389   24.737076   32.149147    2.694027
       516.0       258.0  281.423218  119.138451    7.633469   26.558813   25.763489    3.945647
       517.0       258.5  281.155243  119.111359    8.610105   23.791174   19.802629    0.984291
       518.0       259.0  279.576782  119.367737    9.325429   26.673931   25.086626    2.747097
       519.0       259.5  278.133301  119.676506    5.587226   15.148709   18.415533    4.487786
       520.0       260.0  281.252838  118.463272     3.57376   14.522717    8.203772    0.069086
       521.0       260.5  280.711945  119.499146    3.984156   10.526053    8.616424    1.172619
       522.0       261.0         nan         nan         nan         nan         nan         nan
       523.0       261.5  280.171356  121.643036    1.281928     2.96072    3.955804   -0.997868
#-----------------------------------------------------------------------------------------------
# experiment: ./TRAJECTORIES
# path: /Users/andreapicco/Google Drive/RESEARCH/TRACKING/Automated_Tracking/TEST/AP2_MOVIE_2/./TRAJECTORIES
# file: trajectory_000909.txt
# dataset: Traj_3_Macro_pDC_Left_Mid_AP2_GFP_LP_fr_600_i_0.5_Airyscan Processing_BG_BL_JTC.txt
# t_unit: s
# delta_t: 0.5
# coord_unit: pxl
# intensity_normalisation: None
# eccentricity_pval: 0.19163558024865757
# eccentricity_R: 0.8802661514321242
