#     frames       t (s)     x (pxl)     y (pxl)           f         u02         u20         u11
       131.0        65.5    29.80488  119.268166    1.174124    2.131382    3.209213   -0.570057
       132.0        66.0         nan         nan         nan         nan         nan         nan
       133.0        66.5   29.696859  119.012764    3.135346    5.923132    8.559422    0.689522
       134.0        67.0   29.957815  119.550804    2.092671    7.049582    3.283848   -0.400263
       135.0        67.5   29.309532  119.372589    3.681491    6.738429   13.587263    -0.04497
       136.0        68.0   28.733273  119.786293     2.54391     5.81933    5.856764   -0.013978
       137.0        68.5   28.486019  119.459976    2.407566    7.183732    5.288067   -0.971288
       138.0        69.0   28.751812  119.891014    3.137264    4.849367   14.423177    0.246493
       139.0        69.5   28.439405  119.767578    4.146577    9.190516    8.502869   -0.261725
       140.0        70.0   27.939816  119.457191     3.01506    5.787965   14.227292   -1.998658
       141.0        70.5   28.657116  119.877129    3.102622    7.147068    6.995603   -0.335974
       142.0        71.0   29.173038  119.676971    4.156907    8.210582   15.810398   -1.834096
       143.0        71.5   27.904482  119.484497    4.504394   13.562752   11.203251    -2.66273
       144.0        72.0   27.803825   119.83976    4.538127   12.076411   10.698727   -0.114816
       145.0        72.5   28.446989  119.947411    4.170827    10.97046   13.661869    -1.10654
       146.0        73.0   28.425997  119.617905    7.107925    20.92853   20.019461   -1.570668
       147.0        73.5    27.74803  120.675705    4.551091   11.790626   15.076056    1.389648
       148.0        74.0   28.196796   120.12693    6.358658   16.596228   14.119595    0.334085
       149.0        74.5   27.919342  119.947975      6.8478    15.89561   17.618654     -0.3218
       150.0        75.0   28.244341  119.948296    5.458605   15.822714   13.900909    0.689828
       151.0        75.5   28.261951  119.687737    6.530611   23.392513   15.900236    1.036013
       152.0        76.0   27.637533   119.75782    9.391346    27.96769   24.694334    0.606016
       153.0        76.5   26.661299  120.322762     5.83413   19.613613   13.647178    -1.25685
       154.0        77.0   26.801235   120.54409    7.169493   17.291124   23.565559    2.418205
       155.0        77.5    26.75704  119.853699     4.64794   13.994588   10.853758   -0.183648
       156.0        78.0   27.538876  120.408287    7.866573   23.082235   20.768377    1.786502
       157.0        78.5   26.627182  119.720963    8.775113    30.08543   20.307127   -0.690135
       158.0        79.0   25.743944  119.942184     6.61843   18.284744   16.019875   -1.090095
       159.0        79.5   26.729752  120.601639    9.098411   24.913811   23.400366    1.956156
       160.0        80.0   26.650671  120.852226    9.009649    24.33411   22.163963    5.226632
       161.0        80.5   25.864931  120.849083    7.241011   25.679596   16.963783    1.734078
       162.0        81.0   26.185766  119.749474    7.910005   20.734097   20.347795   -0.602858
       163.0        81.5   26.063095  120.232414     7.64886   21.373129   18.155436   -1.864603
       164.0        82.0   25.699396  120.678589   10.094678   34.670139   22.366051    1.968654
       165.0        82.5   26.374014  120.383995    8.155726   25.744875   18.845667    1.034452
       166.0        83.0   26.333576   120.50518    8.924068   30.671476   23.658379    1.234394
       167.0        83.5    26.13135  120.326294   10.237416   29.084415   29.422676     4.70158
       168.0        84.0   26.283207  120.089722    9.079837   22.620493   29.445759    3.766917
       169.0        84.5   26.029755  120.257805   10.407848   23.417351   27.675047    1.480869
       170.0        85.0   25.705288  120.280159   10.269395   26.355886   29.204882     0.72098
       171.0        85.5   26.110659  120.203857    9.256307   24.127287   23.620232   -0.021413
       172.0        86.0   26.213869  119.949745     8.35221   23.715496   18.476959   -0.120687
       173.0        86.5   26.095776  119.914879   10.495933    27.55337   25.208025   -0.398203
       174.0        87.0   25.767197  120.354622   10.733069   29.024427   26.257212   -1.001338
       175.0        87.5   25.496454  120.606247    8.124422    26.66511   19.459064    0.972643
       176.0        88.0   25.743225  120.352455   10.639758   32.092556   27.206015    0.607485
       177.0        88.5   25.381731  119.914101   11.000287   32.763836    29.06011    -2.05062
       178.0        89.0   24.702461  119.705353   10.874599   28.999004   26.452841    2.140454
       179.0        89.5   24.635708  120.098602   10.601619   24.943272   33.685089   -2.184468
       180.0        90.0   24.423019  119.961739    8.013078      21.688   21.362522   -1.599799
       181.0        90.5   24.026733  119.668121    9.983634   27.218683   28.672068    -3.77306
       182.0        91.0   23.526077  119.997726    9.752942   32.993843   22.447266   -2.437004
       183.0        91.5   23.293808  119.731476    8.298266   20.318121   23.015226    1.792588
       184.0        92.0   24.082714  119.984169   10.987292    29.87355   28.444939   -2.112753
       185.0        92.5   24.356127  119.679634   10.324328   24.933361   25.919172    2.390752
       186.0        93.0   24.909576  119.854218   10.070036   26.929897   29.594683    1.305889
       187.0        93.5   24.855827  119.663063    9.610469   25.762333   33.374931   -0.392349
       188.0        94.0   24.593822  119.719315    7.374653   21.135193   22.527821   -3.224186
       189.0        94.5   24.389729  119.726501    8.445881    22.45916   24.632021    0.067572
       190.0        95.0   24.522762  119.607101    8.473509   20.679087   26.331148    1.011895
       191.0        95.5   23.318075  120.056358    7.466001   15.034889   23.733955   -0.714553
       192.0        96.0   23.582996  119.688477    8.817614   26.692276   20.711174    0.999655
       193.0        96.5   23.863523  119.538818   10.091363   27.754391   22.768406    0.044852
       194.0        97.0   24.205996  119.944717    9.558024   21.073017    29.42528    1.781908
       195.0        97.5   23.391323   119.49205    7.745844   20.291195   18.627258    -1.18526
       196.0        98.0   23.801764  119.478127    6.630759   21.816668   17.117109    2.501516
       197.0        98.5   24.827614  119.220757    8.310196   20.078335   33.544151      7.0009
       198.0        99.0   24.776291  119.947105    9.462829   19.854692   30.851851   -0.622196
       199.0        99.5    23.75983  119.125343    7.301677   21.077835   22.485548   -3.907912
       200.0       100.0   24.225063  119.219048   10.415562   31.988781   24.000971     3.34465
       201.0       100.5   23.890881  119.454361      9.5364   22.021719   26.915676    -3.38427
       202.0       101.0   23.922592  119.258408    7.765911   30.677143   17.391129    0.750997
       203.0       101.5   24.036394  119.400162    7.505886   24.286242   19.038746   -3.180997
       204.0       102.0   24.198589  119.605164      9.0198    23.97809   19.959284    1.020815
       205.0       102.5   24.636818   119.72303    7.839926   21.641705   20.271938    1.391185
       206.0       103.0   24.470964  120.249321    10.89498   26.022665   31.522676   -1.599519
       207.0       103.5   25.046673  119.501938     8.92083   25.255884   18.683767     1.15157
       208.0       104.0   24.472477   119.76619    9.871886   31.995016   23.038353   -0.856401
       209.0       104.5   25.081932  119.889435    7.407259   16.799179   26.093225    2.133508
       210.0       105.0   24.646156  119.885567    7.831731   18.433775   21.413139    2.485266
       211.0       105.5   24.143681  119.749344    6.671488    22.39419   13.005588   -0.491109
       212.0       106.0   24.827879  120.737747    9.011271   21.801783   29.657137    1.754775
       213.0       106.5   24.974447  119.921326    8.080465   15.347567   25.164492    0.137002
       214.0       107.0   25.035254  119.992928    7.565803   17.487663   19.080343   -0.678288
       215.0       107.5   25.253582  120.025963    8.683211    19.95015   30.409218    3.770764
       216.0       108.0   24.066038  120.479172    8.269811   21.508818   17.698675   -1.087626
       217.0       108.5   23.846558  120.095062      6.9003   18.047741   13.441217   -1.607941
       218.0       109.0   23.563814  119.938156    8.041488   19.642586   20.642452   -0.028229
       219.0       109.5   23.672846  120.084518   10.948033   25.013731   25.003021    0.372867
       220.0       110.0   23.210043  119.932648    5.506367   14.848311   11.152542    1.214448
       221.0       110.5   23.501688   120.42569    5.673969   11.732625   16.617857   -1.570311
       222.0       111.0   23.332663  120.465355    3.988242    9.298707    8.015306    0.775607
       223.0       111.5   23.346922    120.2407    4.827479   10.872423   12.302868    1.409088
       224.0       112.0    23.01502  120.540535    3.000435    7.831748    4.855376    0.229106
       225.0       112.5   23.758606  121.173775    1.068794    2.575869    2.677633   -0.936692
#-----------------------------------------------------------------------------------------------
# experiment: ./TRAJECTORIES
# path: /Users/andreapicco/Google Drive/RESEARCH/TRACKING/Automated_Tracking/TEST/AP2_MOVIE_2/./TRAJECTORIES
# file: trajectory_000255.txt
# dataset: Traj_3_Macro_pDC_Left_Mid_AP2_GFP_LP_fr_600_i_0.5_Airyscan Processing_BG_BL_JTC.txt
# t_unit: s
# delta_t: 0.5
# coord_unit: pxl
# intensity_normalisation: None
